 ENERGY RELATIVELY TO THE GROUND STATE: FISSION BARRIER (R, E, der)
      6.60      0.52      3.61
      6.70      0.90      3.90
      6.80      1.30      4.07
      6.90      1.71      4.16
      7.00      2.13      4.19
      7.10      2.55      4.19
      7.20      2.97      4.14
      7.30      3.38      4.08
      7.40      3.78      3.98
      7.50      4.17      3.86
      7.60      4.55      3.72
      7.70      4.92      3.56
      7.80      5.27      3.39
      7.90      5.60      3.20
      8.00      5.91      3.02
      8.10      6.20      2.86
      8.20      6.48      2.74
      8.30      6.75      2.69
      8.40      7.02      2.73
      8.50      7.30      2.92
      8.60      7.60      3.23
      8.70      7.94      3.92
      8.80      8.38      4.93
      8.90      8.93      5.95
      9.00      9.57      6.97
      9.10     10.32      9.17
      9.20     11.41     13.35
      9.30     12.99     13.39
      9.40     14.09      5.87
      9.50     14.17      0.95
      9.60     14.28      1.26
      9.70     14.42      1.47
      9.80     14.57      1.55
      9.90     14.73      1.58
     10.00     14.89      1.55
     10.10     15.04      1.43
     10.20     15.17      1.30
     10.30     15.30      1.12
     10.40     15.40      0.87
     10.50     15.47      0.66
     10.60     15.53      0.46
     10.70     15.56      0.19
     10.80     15.57     -0.04
     10.90     15.56     -0.22
     11.00     15.52     -0.41
     11.10     15.47     -0.59
     11.20     15.41     -0.70
     11.30     15.33     -0.80
     11.40     15.25     -0.92
     11.50     15.15     -1.00
     11.60     15.05     -1.06
     11.70     14.94     -1.12
     11.80     14.82     -1.17
     11.90     14.70     -1.20
     12.00     14.58     -1.23
     12.10     14.46     -1.26
     12.20     14.33     -1.28
     12.30     14.20     -1.29
     12.40     14.07     -1.30
     12.50     13.94     -1.31
     12.60     13.81     -1.31
     12.70     13.68     -1.31
     12.80     13.55     -1.31
     12.90     13.42     -1.30
     13.00     13.29     -1.29
     13.10     13.16     -1.29
     13.20     13.03     -1.28
     13.30     12.90     -1.27
     13.40     12.78     -1.26
     13.50     12.65     -1.24
     13.60     12.53     -1.23
     13.70     12.41     -1.22
     13.80     12.29     -1.21
     13.90     12.17     -1.19
     14.00     12.05     -1.18
     14.10     11.93     -1.17
     14.20     11.81     -1.15
     14.30     11.70     -1.14
     14.40     11.59     -1.13
     14.50     11.47     -1.11
     14.60     11.36     -1.10
     14.70     11.25     -1.08
     14.80     11.15     -1.07
     14.90     11.04     -1.06
     15.00     10.94     -1.04
     15.10     10.83     -1.03
     15.20     10.73     -1.02
     15.30     10.63     -1.00
     15.40     10.53     -0.99
     15.50     10.43     -0.98
     15.60     10.33     -0.97
     15.70     10.24     -0.96
     15.80     10.14     -0.94
     15.90     10.05     -0.93
     16.00      9.96     -0.92
     16.10      9.86     -0.91
     16.20      9.77     -0.90
     16.30      9.68     -0.89
     16.40      9.60     -0.88
     16.50      9.51     -0.87
     16.60      9.42     -0.86
     16.70      9.34     -0.85
     16.80      9.25     -0.84
     16.90      9.17     -0.83
     17.00      9.09     -0.82
     17.10      9.01     -0.81
     17.20      8.93     -0.80
     17.30      8.85     -0.79
     17.40      8.77     -0.78
     17.50      8.69     -0.77
     17.60      8.61     -0.76
     17.70      8.54     -0.75
     17.80      8.46     -0.74
     17.90      8.39     -0.74
     18.00      8.32     -0.73
     18.10      8.24     -0.72
     18.20      8.17     -0.71
     18.30      8.10     -0.71
     18.40      8.03     -0.70
     18.50      7.96     -0.69
     18.60      7.89     -0.68
     18.70      7.83     -0.68
     18.80      7.76     -0.67
     18.90      7.69     -0.66
     19.00      7.63     -0.65
     19.10      7.56     -0.65
     19.20      7.50     -0.64
     19.30      7.43     -0.63
     19.40      7.37     -0.63
     19.50      7.31     -0.62
     19.60      7.25     -0.61
     19.70      7.18     -0.61
     19.80      7.12     -0.60
     19.90      7.06     -0.60
     20.00      7.00     -0.59
     20.10      6.95     -0.58
     20.20      6.89     -0.58
     20.30      6.83     -0.57
     20.40      6.77     -0.57
     20.50      6.72     -0.56
     20.60      6.66     -0.56
     20.70      6.61     -0.55
     20.80      6.55     -0.55
     20.90      6.50     -0.54
     21.00      6.44     -0.54
     21.10      6.39     -0.53
     21.20      6.34     -0.53
     21.30      6.28     -0.52
     21.40      6.23     -0.52
     21.50      6.18     -0.51
     21.60      6.13     -0.51
     21.70      6.08     -0.50
     21.80      6.03     -0.50
     21.90      5.98     -0.49
     22.00      5.93     -0.49
     22.10      5.88     -0.48
     22.20      5.83     -0.48
     22.30      5.79     -0.47
     22.40      5.74     -0.47
     22.50      5.69     -0.47
     22.60      5.65     -0.46
     22.70      5.60     -0.46
     22.80      5.55     -0.45
     22.90      5.51     -0.45
     23.00      5.46     -0.45
     23.10      5.42     -0.44
     23.20      5.38     -0.44
     23.30      5.33     -0.43
     23.40      5.29     -0.43
     23.50      5.25     -0.43
     23.60      5.20     -0.42
     23.70      5.16     -0.42
     23.80      5.12     -0.42
     23.90      5.08     -0.41
     24.00      5.04     -0.41
     24.10      5.00     -0.41
     24.20      4.96     -0.40
     24.30      4.91     -0.40
     24.40      4.88     -0.40
     24.50      4.84     -0.39
     24.60      4.80     -0.39
     24.70      4.76     -0.39
     24.80      4.72     -0.38
     24.90      4.68     -0.38
     25.00      4.64     -0.38
     25.10      4.61     -0.37
     25.20      4.57     -0.37
     25.30      4.53     -0.37
     25.40      4.49     -0.37
     25.50      4.46     -0.36
     25.60      4.42     -0.36
     25.70      4.39     -0.36
     25.80      4.35     -0.35
     25.90      4.31     -0.35
     26.00      4.28     -0.35
     26.10      4.24     -0.35
     26.20      4.21     -0.34
     26.30      4.18     -0.34
     26.40      4.14     -0.34
     26.50      4.11     -0.34
     26.60      4.07     -0.33
     26.70      4.04     -0.33
     26.80      4.01     -0.33
     26.90      3.98     -0.33
     27.00      3.94     -0.32
     27.10      3.91     -0.32
     27.20      3.88     -0.32
     27.30      3.85     -0.32
     27.40      3.82     -0.31
     27.50      3.78     -0.31
     27.60      3.75     -0.31
     27.70      3.72     -0.31
     27.80      3.69     -0.31
     27.90      3.66     -0.30
     28.00      3.63     -0.30
     28.10      3.60     -0.30
     28.20      3.57     -0.30
     28.30      3.54     -0.29
     28.40      3.51     -0.29
     28.50      3.48     -0.29
     28.60      3.45     -0.29
     28.70      3.43     -0.29
     28.80      3.40     -0.28
     28.90      3.37     -0.28
     29.00      3.34     -0.28
     29.10      3.31     -0.28
     29.20      3.28     -0.28
     29.30      3.26     -0.27
     29.40      3.23     -0.27
     29.50      3.20     -0.27
     29.60      3.17     -0.27
     29.70      3.15     -0.27
     29.80      3.12     -0.27
     29.90      3.09     -0.26
     30.00      3.07     -0.26
     30.10      3.04     -0.26
     30.20      3.02     -0.26
     30.30      2.99     -0.26
     30.40      2.96     -0.26
     30.50      2.94     -0.25
     30.60      2.91     -0.25
     30.70      2.89     -0.25
     30.80      2.86     -0.25
     30.90      2.84     -0.25
     31.00      2.81     -0.25
     31.10      2.79     -0.24
     31.20      2.77     -0.24
     31.30      2.74     -0.24
     31.40      2.72     -0.24
     31.50      2.69     -0.24
     31.60      2.67     -0.24
     31.70      2.65     -0.23
     31.80      2.62     -0.23
     31.90      2.60     -0.23
     32.00      2.58     -0.23
     32.10      2.55     -0.23
     32.20      2.53     -0.23
     32.30      2.51     -0.23
     32.40      2.49     -0.22
     32.50      2.46     -0.22
     32.60      2.44     -0.22
     32.70      2.42     -0.22
     32.80      2.40     -0.22
     32.90      2.37     -0.22
     33.00      2.35     -0.22
     33.10      2.33     -0.22
     33.20      2.31     -0.21
     33.30      2.29     -0.21
     33.40      2.27     -0.21
     33.50      2.25     -0.21
     33.60      2.23     -0.21
     33.70      2.20     -0.21
     33.80      2.18     -0.21
     33.90      2.16     -0.21
     34.00      2.14     -0.20
     34.10      2.12     -0.20
     34.20      2.10     -0.20
     34.30      2.08     -0.20
     34.40      2.06     -0.20
     34.50      2.04     -0.20
     34.60      2.02     -0.20
     34.70      2.00     -0.20
     34.80      1.98     -0.19
     34.90      1.96     -0.19
     35.00      1.94     -0.19
     35.10      1.92     -0.19
     35.20      1.91     -0.19
     35.30      1.89     -0.19
     35.40      1.87     -0.19
     35.50      1.85     -0.19
     35.60      1.83     -0.19
     35.70      1.81     -0.19
     35.80      1.79     -0.18
     35.90      1.77     -0.18
     36.00      1.76     -0.18
     36.10      1.74     -0.18
     36.20      1.72     -0.18
     36.30      1.70     -0.18
     36.40      1.68     -0.18
     36.50      1.67     -0.18
     36.60      1.65     -0.18
     36.70      1.63     -0.18
     36.80      1.61     -0.17
     36.90      1.60     -0.17
     37.00      1.58     -0.17
     37.10      1.56     -0.17
     37.20      1.54     -0.17
     37.30      1.53     -0.17
     37.40      1.51     -0.17
     37.50      1.49     -0.17
     37.60      1.48     -0.17
     37.70      1.46     -0.17
     37.80      1.44     -0.17
     37.90      1.43     -0.16
     38.00      1.41     -0.16
     38.10      1.39     -0.16
     38.20      1.38     -0.16
     38.30      1.36     -0.16
     38.40      1.35     -0.16
     38.50      1.33     -0.16
     38.60      1.31     -0.16
     38.70      1.30     -0.16
     38.80      1.28     -0.16
     38.90      1.27     -0.16
     39.00      1.25     -0.16
     39.10      1.24     -0.15
     39.20      1.22     -0.15
     39.30      1.21     -0.15
     39.40      1.19     -0.15
     39.50      1.18     -0.15
     39.60      1.16     -0.15
     39.70      1.15     -0.15
     39.80      1.13     -0.15
     39.90      1.12     -0.15
     40.00      1.10     -0.15
     40.10      1.09     -0.15
     40.20      1.07     -0.15
     40.30      1.06     -0.15
     40.40      1.04     -0.14
     40.50      1.03     -0.14
     40.60      1.01     -0.14
     40.70      1.00     -0.14
     40.80      0.98     -0.14
     40.90      0.97     -0.14
     41.00      0.96     -0.14
     41.10      0.94     -0.14
     41.20      0.93     -0.14
     41.30      0.91     -0.14
     41.40      0.90     -0.14
     41.50      0.89     -0.14
     41.60      0.87     -0.14
     41.70      0.86     -0.14
     41.80      0.85     -0.14
     41.90      0.83     -0.13
     42.00      0.82     -0.13
     42.10      0.81     -0.13
     42.20      0.79     -0.13
     42.30      0.78     -0.13
     42.40      0.77     -0.13
     42.50      0.75     -0.13
     42.60      0.74     -0.13
     42.70      0.73     -0.13
     42.80      0.71     -0.13
     42.90      0.70     -0.13
     43.00      0.69     -0.13
     43.10      0.68     -0.13
     43.20      0.66     -0.13
     43.30      0.65     -0.13
     43.40      0.64     -0.13
     43.50      0.63     -0.12
     43.60      0.61     -0.12
     43.70      0.60     -0.12
     43.80      0.59     -0.12
     43.90      0.58     -0.12
     44.00      0.56     -0.12
     44.10      0.55     -0.12
     44.20      0.54     -0.12
     44.30      0.53     -0.12
     44.40      0.52     -0.12
     44.50      0.50     -0.12
     44.60      0.49     -0.12
     44.70      0.48     -0.12
     44.80      0.47     -0.12
     44.90      0.46     -0.12
     45.00      0.44     -0.12
     45.10      0.43     -0.12
     45.20      0.42     -0.12
     45.30      0.41     -0.12
     45.40      0.40     -0.11
     45.50      0.39     -0.11
     45.60      0.38     -0.11
     45.70      0.36     -0.11
     45.80      0.35     -0.11
     45.90      0.34     -0.11
     46.00      0.33     -0.11
     46.10      0.32     -0.11
     46.20      0.31     -0.11
     46.30      0.30     -0.11
     46.40      0.29     -0.11
     46.50      0.28     -0.11
     46.60      0.26     -0.11
     46.70      0.25     -0.11
     46.80      0.24     -0.11
     46.90      0.23     -0.11
     47.00      0.22     -0.11
     47.10      0.21     -0.11
     47.20      0.20     -0.11
     47.30      0.19     -0.11
     47.40      0.18     -0.11
     47.50      0.17     -0.10
     47.60      0.16     -0.10
     47.70      0.15     -0.10
     47.80      0.14     -0.10
     47.90      0.13     -0.10
     48.00      0.12     -0.10
     48.10      0.11     -0.10
     48.20      0.10     -0.10
     48.30      0.09     -0.10
     48.40      0.08     -0.10
     48.50      0.07     -0.10
     48.60      0.06     -0.10
     48.70      0.05     -0.10
     48.80      0.04     -0.10
     48.90      0.03     -0.10
     49.00      0.02     -0.10
     49.10      0.01     -0.10
     49.20     -0.00     -0.10
     49.30     -0.01     -0.10
     49.40     -0.02     -0.10
     49.50     -0.03     -0.10
     49.60     -0.04     -0.10
     49.70     -0.05     -0.10
     49.80     -0.06     -0.10
     49.90     -0.07     -0.09
     50.00     -0.08     -0.09
     50.10     -0.09     -0.09
     50.20     -0.10     -0.09
     50.30     -0.11     -0.09
     50.40     -0.12     -0.09
     50.50     -0.13     -0.09
     50.60     -0.14     -0.09
     50.70     -0.15     -0.09
     50.80     -0.15     -0.09
     50.90     -0.16     -0.09
     51.00     -0.17     -0.09
     51.10     -0.18     -0.09
     51.20     -0.19     -0.09
     51.30     -0.20     -0.09
     51.40     -0.21     -0.09
     51.50     -0.22     -0.09
     51.60     -0.23     -0.09
     51.70     -0.24     -0.09
     51.80     -0.24     -0.09
     51.90     -0.25     -0.09
     52.00     -0.26     -0.09
     52.10     -0.27     -0.09
     52.20     -0.28     -0.09
     52.30     -0.29     -0.09
     52.40     -0.30     -0.09
     52.50     -0.31     -0.09
     52.60     -0.31     -0.09
     52.70     -0.32     -0.09
     52.80     -0.33     -0.08
     52.90     -0.34     -0.08
     53.00     -0.35     -0.08
     53.10     -0.36     -0.08
     53.20     -0.36     -0.08
     53.30     -0.37     -0.08
     53.40     -0.38     -0.08
     53.50     -0.39     -0.08
     53.60     -0.40     -0.08
     53.70     -0.41     -0.08
     53.80     -0.41     -0.08
     53.90     -0.42     -0.08
     54.00     -0.43     -0.08
     54.10     -0.44     -0.08
     54.20     -0.45     -0.08
     54.30     -0.45     -0.08
     54.40     -0.46     -0.08
     54.50     -0.47     -0.08
     54.60     -0.48     -0.08
     54.70     -0.49     -0.08
     54.80     -0.49     -0.08
     54.90     -0.50     -0.08
     55.00     -0.51     -0.08
     55.10     -0.52     -0.08
     55.20     -0.53     -0.08
     55.30     -0.53     -0.08
     55.40     -0.54     -0.08
     55.50     -0.55     -0.08
     55.60     -0.56     -0.08
     55.70     -0.56     -0.08
     55.80     -0.57     -0.08
     55.90     -0.58     -0.08
     56.00     -0.59     -0.08
     56.10     -0.59     -0.08
     56.20     -0.60     -0.07
     56.30     -0.61     -0.07
     56.40     -0.62     -0.07
     56.50     -0.62     -0.07
     56.60     -0.63     -0.07
     56.70     -0.64     -0.07
     56.80     -0.65     -0.07
     56.90     -0.65     -0.07
     57.00     -0.66     -0.07
     57.10     -0.67     -0.07
     57.20     -0.67     -0.07
     57.30     -0.68     -0.07
     57.40     -0.69     -0.07
     57.50     -0.70     -0.07
     57.60     -0.70     -0.07
     57.70     -0.71     -0.07
     57.80     -0.72     -0.07
     57.90     -0.72     -0.07
     58.00     -0.73     -0.07
     58.10     -0.74     -0.07
     58.20     -0.75     -0.07
     58.30     -0.75     -0.07
     58.40     -0.76     -0.07
     58.50     -0.77     -0.07
     58.60     -0.77     -0.07
     58.70     -0.78     -0.07
     58.80     -0.79     -0.07
     58.90     -0.79     -0.07
     59.00     -0.80     -0.07
     59.10     -0.81     -0.07
     59.20     -0.81     -0.07
     59.30     -0.82     -0.07
     59.40     -0.83     -0.07
     59.50     -0.83     -0.07
     59.60     -0.84     -0.07
     59.70     -0.85     -0.07
     59.80     -0.85     -0.07
     59.90     -0.86     -0.07
     60.00     -0.87     -0.07
     60.10     -0.87     -0.07
     60.20     -0.88     -0.07
     60.30     -0.89     -0.06
     60.40     -0.89     -0.06
     60.50     -0.90     -0.06
     60.60     -0.91     -0.06
     60.70     -0.91     -0.06
     60.80     -0.92     -0.06
     60.90     -0.93     -0.06
     61.00     -0.93     -0.06
     61.10     -0.94     -0.06
     61.20     -0.94     -0.06
     61.30     -0.95     -0.06
     61.40     -0.96     -0.06
     61.50     -0.96     -0.06
     61.60     -0.97     -0.06
     61.70     -0.98     -0.06
     61.80     -0.98     -0.06
     61.90     -0.99     -0.06
     62.00     -0.99     -0.06
     62.10     -1.00     -0.06
     62.20     -1.01     -0.06
     62.30     -1.01     -0.06
     62.40     -1.02     -0.06
     62.50     -1.02     -0.06
     62.60     -1.03     -0.06
     62.70     -1.04     -0.06
     62.80     -1.04     -0.06
     62.90     -1.05     -0.06
     63.00     -1.05     -0.06
     63.10     -1.06     -0.06
     63.20     -1.07     -0.06
     63.30     -1.07     -0.06
     63.40     -1.08     -0.06
     63.50     -1.08     -0.06
     63.60     -1.09     -0.06
     63.70     -1.10     -0.06
     63.80     -1.10     -0.06
     63.90     -1.11     -0.06
     64.00     -1.11     -0.06
     64.10     -1.12     -0.06
     64.20     -1.12     -0.06
     64.30     -1.13     -0.06
     64.40     -1.14     -0.06
     64.50     -1.14     -0.06
     64.60     -1.15     -0.06
     64.70     -1.15     -0.06
     64.80     -1.16     -0.06
     64.90     -1.16     -0.06
     65.00     -1.17     -0.06
     65.10     -1.18     -0.06
     65.20     -1.18     -0.06
     65.30     -1.19     -0.06
     65.40     -1.19     -0.06
     65.50     -1.20     -0.06
     65.60     -1.20     -0.05
     65.70     -1.21     -0.05
     65.80     -1.21     -0.05
     65.90     -1.22     -0.05
     66.00     -1.23     -0.05
     66.10     -1.23     -0.05
     66.20     -1.24     -0.05
     66.30     -1.24     -0.05
     66.40     -1.25     -0.05
     66.50     -1.25     -0.05
     66.60     -1.26     -0.05
     66.70     -1.26     -0.05
     66.80     -1.27     -0.05
     66.90     -1.27     -0.05
     67.00     -1.28     -0.05
     67.10     -1.28     -0.05
     67.20     -1.29     -0.05
     67.30     -1.29     -0.05
     67.40     -1.30     -0.05
     67.50     -1.30     -0.05
     67.60     -1.31     -0.05
     67.70     -1.32     -0.05
     67.80     -1.32     -0.05
     67.90     -1.33     -0.05
     68.00     -1.33     -0.05
     68.10     -1.34     -0.05
     68.20     -1.34     -0.05
     68.30     -1.35     -0.05
     68.40     -1.35     -0.05
     68.50     -1.36     -0.05
     68.60     -1.36     -0.05
     68.70     -1.37     -0.05
     68.80     -1.37     -0.05
     68.90     -1.38     -0.05
     69.00     -1.38     -0.05
     69.10     -1.39     -0.05
     69.20     -1.39     -0.05
     69.30     -1.40     -0.05
     69.40     -1.40     -0.05
     69.50     -1.41     -0.05
     69.60     -1.41     -0.05
     69.70     -1.42     -0.05
     69.80     -1.42     -0.05
     69.90     -1.42     -0.05
     70.00     -1.43     -0.05
     70.10     -1.43     -0.05
     70.20     -1.44     -0.05
     70.30     -1.44     -0.05
     70.40     -1.45     -0.05
     70.50     -1.45     -0.05
     70.60     -1.46     -0.05
     70.70     -1.46     -0.05
